Frame number,6894
First frame,1
Point frequency,200
Analog frequency,1000

Time,Force.Fx1,Force.Fy1,Force.Fz1,Force.Fx2,Force.Fy2,Force.Fz2,accel.x,accel.y,accel.z,accel.x,accel.y,accel.z
s,N,N,N,N,N,N,mm/s,mm/s,mm/s,mm/s,mm/s,mm/s
0,-38.4752,141.176,-487.42,3.12548e-24,-5.77557e-24,1.6125e-23,-1.21102,7.93634,-1.90367,-14.2156,29.7716,-0.982228
0.001,-43.6236,141.372,-476.813,5.86211e-24,-9.79051e-24,3.46339e-23,-1.25685,8.11362,-2.04598,-14.229,29.4603,-0.994111
0.002,-49.2162,141.631,-463.704,9.40627e-24,-1.47434e-23,5.96442e-23,-1.32216,8.31203,-2.18962,-14.242,29.0816,-1.0204
0.003,-54.6478,141.884,-448.542,1.362e-23,-2.03006e-23,9.07758e-23,-1.40712,8.51557,-2.31613,-14.249,28.649,-1.06555
0.004,-59.2184,141.965,-431.999,1.81246e-23,-2.57564e-23,1.26099e-22,-1.50879,8.70556,-2.40798,-14.2398,28.1813,-1.13194
0.005,-62.3031,141.599,-414.807,2.22008e-23,-2.99046e-23,1.61386e-22,-1.62157,8.86401,-2.4531,-14.1993,27.7008,-1.21657
0.006,-63.4778,140.411,-397.565,2.46869e-23,-3.09183e-23,1.89295e-22,-1.73836,8.97685,-2.44758,-14.1086,27.2307,-1.3073
0.007,-62.5494,138.003,-380.615,2.38916e-23,-2.627e-23,1.98584e-22,-1.85216,9.03614,-2.39635,-13.9472,26.7945,-1.38139
0.008,-59.5169,134.109,-364.012,1.75541e-23,-1.27379e-23,1.73559e-22,-1.95733,9.04132,-2.31256,-13.6982,26.4138,-1.40897
0.009,-54.5273,128.728,-347.593,2.8913e-24,1.34397e-23,9.40444e-23,-2.05028,8.9992,-2.21629,-13.3527,26.1072,-1.36081
0.01,-47.8642,122.158,-331.115,-2.32109e-23,5.61828e-23,-6.37553e-23,-2.12934,8.92313,-2.13216,-12.9136,25.8897,-1.21623
0.011,-39.9507,114.91,-314.432,-6.37968e-23,1.18875e-22,-3.24992e-22,-2.194,8.83107,-2.08532,-12.3964,25.772,-0.966168
0.012,-31.3357,107.584,-297.603,-1.21158e-22,2.03262e-22,-7.11963e-22,-2.24392,8.74276,-2.09602,-11.8281,25.7608,-0.61012
0.013,-22.6669,100.77,-280.911,-1.958e-22,3.07887e-22,-1.23738e-21,-2.27804,8.67641,-2.17456,-11.2428,25.8595,-0.150634
0.014,-14.652,94.9767,-264.797,-2.85022e-22,4.26013e-22,-1.89463e-21,-2.29398,8.64578,-2.31839,-10.678,26.0688,0.408756
0.015,-7.97955,90.5865,-249.729,-3.811e-22,5.43126e-22,-2.64489e-21,-2.2879,8.65839,-2.51228,-10.1684,26.3859,1.05951
0.016,-3.17876,87.8052,-236.05,-4.69179e-22,6.34192e-22,-3.40134e-21,-2.2548,8.71484,-2.73103,-9.73998,26.803,1.78257
0.017,-0.477318,86.6349,-223.835,-5.25081e-22,6.61073e-22,-4.01171e-21,-2.18943,8.80935,-2.94392,-9.40495,27.3059,2.55005
0.018,0.218574,86.8756,-212.857,-5.13427e-22,5.70742e-22,-4.24141e-21,-2.08774,8.93112,-3.12022,-9.15962,27.8738,3.33711
0.019,-0.796758,88.1623,-202.692,-3.86691e-22,2.9528e-22,-3.7614e-21,-1.94868,9.0667,-3.23523,-8.98845,28.4815,4.13491
0.02,-3.16955,90.023,-192.883,-8.60746e-23,-2.45057e-22,-2.14654e-21,-1.77557,9.20258,-3.27625,-8.87138,29.1002,4.95311
0.021,-6.54274,91.9355,-183.074,4.5463e-22,-1.13404e-21,1.10725e-21,-1.57681,9.32787,-3.24663,-8.79135,29.7001,5.80921
0.022,-10.5331,93.3954,-173.046,1.30079e-21,-2.44506e-21,6.5369e-21,-1.36551,9.43619,-3.16561,-8.73932,30.2509,6.71315
0.023,-14.696,93.9934,-162.704,2.50276e-21,-4.21827e-21,1.4625e-20,-1.15851,9.52642,-3.06294,-8.7148,30.7248,7.65734
0.024,-18.5332,93.4536,-152.066,4.07433e-21,-6.42765e-21,2.56598e-20,-0.974248,9.60218,-2.97036,-8.72159,31.0976,8.61582
0.025,-21.5483,91.614,-141.264,5.96285e-21,-8.93751e-21,3.95315e-20,-0.83,9.67021,-2.91371,-8.76092,31.3517,9.55181
0.026,-23.3274,88.3997,-130.514,8.01103e-21,-1.14495e-20,5.54606e-20,-0.738875,9.73824,-2.90838,-8.82575,31.4768,10.4299
0.027,-23.6291,83.8367,-120.039,9.91217e-21,-1.34444e-20,7.16651e-20,-0.707579,9.81296,-2.95854,-8.89889,31.4696,11.2283
0.028,-22.4489,78.092,-110.003,1.11633e-20,-1.4126e-20,8.49885e-20,-0.735641,9.89853,-3.05899,-8.95533,31.3317,11.9461
0.029,-20.0094,71.4899,-100.46,1.10246e-20,-1.23824e-20,9.05378e-20,-0.816434,9.99565,-3.19856,-8.96735,31.0667,12.6018
0.03,-16.6683,64.4945,-91.3515,8.49709e-21,-6.78211e-21,8.14151e-20,-0.939591,10.1016,-3.36389,-8.91071,30.6768,13.2244
0.031,-12.8006,57.6645,-82.5565,2.3391e-21,4.36477e-21,4.86657e-20,-1.09402,10.2107,-3.54236,-8.77022,30.1609,13.8406
0.032,-8.73836,51.5662,-74.0178,-8.85639e-21,2.28472e-20,-1.83863e-20,-1.27068,10.3161,-3.72418,-8.54328,29.5147,14.4632
0.033,-4.79496,46.6469,-65.8471,-2.64919e-20,5.02555e-20,-1.31196e-19,-1.46461,10.4103,-3.90375,-8.24065,28.7322,15.0851
0.034,-1.31229,43.1108,-58.3168,-5.16716e-20,8.7505e-20,-3.00197e-19,-1.67576,10.4875,-4.07996,-7.88454,27.8088,15.6806
0.035,1.34775,40.8531,-51.7249,-8.4751e-20,1.34147e-19,-5.31887e-19,-1.909,10.5438,-4.25529,-7.50422,26.7444,16.2134
0.036,2.89118,39.4866,-46.2252,-1.24711e-19,1.87452e-19,-8.24565e-19,-2.17322,10.5777,-4.43402,-7.13023,25.5454,16.6466
0.037,3.21321,38.4532,-41.7141,-1.68352e-19,2.41294e-19,-1.16263e-18,-2.47987,10.5897,-4.6199,-6.78895,24.2261,16.9535
0.038,2.47247,37.1685,-37.8239,-2.09344e-19,2.84903e-19,-1.50952e-18,-2.84132,10.5816,-4.81371,-6.4989,22.8071,17.1248
0.039,1.06198,35.148,-34.0458,-2.37232e-19,3.01674e-19,-1.79984e-18,-3.2694,10.5561,-5.01186,-6.26873,21.3116,17.1716
0.04,-0.514878,32.0932,-29.9359,-2.36541e-19,2.68285e-19,-1.93157e-18,-3.77434,10.5161,-5.20728,-6.09651,19.7626,17.1212
0.041,-1.8088,27.9458,-25.2874,-1.86291e-19,1.5458e-19,-1.76014e-18,-4.36363,10.4643,-5.39275,-5.97052,18.1814,17.0095
0.042,-2.56416,22.9285,-20.2036,-6.02601e-20,-7.5239e-20,-1.09698e-18,-5.0411,10.4025,-5.5651,-5.87119,16.588,16.8725
0.043,-2.76582,17.5361,-15.0607,1.71438e-19,-4.59356e-19,2.83911e-19,-5.80602,10.3321,-5.72788,-5.77328,15.0038,16.7407
0.044,-2.56306,12.38,-10.3365,5.38874e-19,-1.03219e-18,2.62679e-18,-6.65225,10.2539,-5.89067,-5.64796,13.4548,16.6346
0.045,-2.1409,7.93943,-6.38798,1.0662e-18,-1.81446e-18,6.15701e-18,-7.56763,10.1687,-6.06555,-5.46504,11.9727,16.5591
0.046,-1.64293,4.43976,-3.35616,1.76228e-18,-2.7988e-18,1.10203e-17,-8.53425,10.0776,-6.26309,-5.19546,10.5939,16.4985
0.047,-1.16074,1.89829,-1.21286,2.60752e-18,-3.93045e-18,1.71937e-17,-9.52991,9.98211,-6.49,-4.81417,9.35361,16.4158
0.048,-0.745115,0.210744,0.164028,3.53692e-18,-5.08368e-18,2.43655e-17,-10.5304,9.88472,-6.74942,-4.30245,8.27768,16.2602
0.049,-0.417316,-0.784638,0.936117,4.41996e-18,-6.03528e-18,3.17867e-17,-11.5125,9.78932,-7.04267,-3.64935,7.3756,15.9801
0.05,-0.179093,-1.26339,1.26842,5.03927e-18,-6.43887e-18,3.81028e-17,-12.4563,9.70106,-7.37056,-2.85272,6.63862,15.5382
0.051,-0.0207735,-1.38801,1.30825,5.07144e-18,-5.80562e-18,4.11871e-17,-13.3473,9.62608,-7.73333,-1.92089,6.0452,14.9221
0.052,0.072729,-1.29418,1.17518,4.07576e-18,-3.50033e-18,3.80107e-17,-14.1779,9.57104,-8.12965,-0.874871,5.56965,14.151
0.053,0.117817,-1.08594,0.958556,1.49882e-18,1.23504e-18,2.4604e-17,-14.9476,9.54224,-8.55593,0.250894,5.18934,13.2751
0.054,0.129694,-0.836734,0.719725,-3.29399e-18,9.21506e-18,-3.81609e-18,-15.6621,9.54474,-9.00658,1.41172,4.888,12.3668
0.055,0.12106,-0.593695,0.496599,-1.0947e-17,2.11837e-17,-5.24551e-17,-16.3327,9.58161,-9.4753,2.55931,4.65518,11.5037
0.056,0.101662,-0.383176,0.309105,-2.19876e-17,3.76076e-17,-1.26175e-16,-16.9742,9.65336,-9.95724,3.64851,4.48243,10.7487
0.057,0.0783888,-0.216454,0.164453,-3.66308e-17,5.83749e-17,-2.28229e-16,-17.6031,9.75776,-10.451,4.64093,4.35861,10.1358
0.058,0.0556619,-0.0947896,0.0616776,-5.45035e-17,8.239e-17,-3.58403e-16,-18.2354,9.88992,-10.9595,5.50552,4.26779,9.66533
0.059,0.0359587,-0.0135375,-0.00476666,-7.42869e-17,1.07074e-16,-5.10491e-16,-18.8853,10.0427,-11.4897,6.21877,4.19186,9.30927
0.06,0.0203431,0.0347926,-0.0424006,-9.32913e-17,1.27803e-16,-6.69156e-16,-19.5632,10.208,-12.0507,6.76563,4.11727,9.02296
0.061,0.00893953,0.0584319,-0.058983,-1.07e-16,1.37355e-16,-8.0636e-16,-20.2743,10.3779,-12.6509,7.14042,4.04325,8.75748
0.062,0.0013172,0.0650567,-0.0614848,-1.08654e-16,1.25485e-16,-8.77783e-16,-21.0174,10.5452,-13.295,7.34671,3.98871,8.46846
0.063,-0.00322231,0.0611093,-0.0555927,-8.90011e-17,7.88191e-17,-8.19986e-16,-21.7841,10.7044,-13.9822,7.39662,3.99546,8.11945
0.064,-0.00544812,0.051554,-0.045577,-3.63629e-17,-1.86904e-17,-5.49425e-16,-22.5593,10.8513,-14.7061,7.31082,4.12589,7.68133
0.065,-0.00607831,0.0399136,-0.0343846,6.27299e-17,-1.84411e-16,3.50886e-17,-23.3219,10.9846,-15.4572,7.12047,4.45436,7.13129
0.066,-0.00571595,0.0284623,-0.0238499,2.22072e-16,-4.34404e-16,1.04444e-15,-24.0471,11.1059,-16.2259,6.87058,5.05228,6.45377
0.067,-0.00482612,0.0184849,-0.0149495,4.53162e-16,-7.79132e-16,2.58341e-15,-24.7089,11.2204,-17.0047,6.6228,5.96852,5.64375
0.068,-0.00373912,0.0105445,-0.00804986,7.61121e-16,-1.21714e-15,4.72439e-15,-25.2834,11.3363,-17.7891,6.45506,7.20997,4.71172
0.069,-0.00266835,0.004722,-0.00312315,1.13892e-15,-1.72657e-15,7.46848e-15,-25.7515,11.4638,-18.5763,6.45684,8.72997,3.68744
0.07,-0.00173458,0.00081137,8.18319e-05,1.55984e-15,-2.25458e-15,1.06925e-14,-26.1014,11.6135,-19.3634,6.71978,10.4319,2.61934
0.071,-0.000990897,-0.00153379,0.00191478,1.96848e-15,-2.70542e-15,1.40827e-14,-26.33,11.7942,-20.1456,7.32471,12.1888,1.56861
0.072,-0.000445177,-0.00269928,0.00274035,2.27103e-15,-2.92853e-15,1.7059e-14,-26.4434,12.0117,-20.9162,8.32709,13.8711,0.599979
0.073,-7.83387e-05,-0.00304755,0.00288829,2.32631e-15,-2.70931e-15,1.8698e-14,-26.4561,12.2678,-21.6674,9.74409,15.3727,-0.227994
0.074,0.000141915,-0.00288445,0.00262899,1.94006e-15,-1.7662e-15,1.76715e-14,-26.3894,12.5599,-22.3918,11.5462,16.6269,-0.871293
0.075,0.000251631,-0.00244678,0.00216647,8.65959e-16,2.4037e-16,1.22217e-14,-26.2689,12.8818,-23.0827,13.656,17.6121,-1.30601
0.076,0.000284712,-0.00190342,0.00164224,-1.18176e-15,3.68051e-15,2.08552e-16,-26.1223,13.2244,-23.7336,15.9547,18.3477,-1.5301
0.077,0.000269787,-0.00136408,0.00114504,-4.49826e-15,8.90065e-15,-2.07289e-14,-25.9776,13.5777,-24.3385,18.2942,18.8855,-1.56113
0.078,0.00022904,-0.000891348,0.000722659,-9.33379e-15,1.61342e-14,-5.28465e-14,-25.8605,13.9316,-24.892,20.5139,19.2956,-1.43128
0.079,0.000178306,-0.00051328,0.000393653,-1.58086e-14,2.53698e-14,-9.77493e-14,-25.7923,14.2783,-25.3914,22.4575,19.6513,-1.18068
0.08,0.000127878,-0.00023471,0.000157559,-2.3792e-14,3.61721e-14,-1.55578e-13,-25.7878,14.6134,-25.8383,23.9895,20.0144,-0.850667
0.081,8.36383e-05,-4.65596e-05,3.0357e-06,-3.27436e-14,4.74596e-14,-2.23897e-13,-25.8547,14.9367,-26.2378,25.0086,20.4255,-0.477653
0.082,4.8231e-05,6.71731e-05,-8.61659e-05,-4.15231e-14,5.72501e-14,-2.96293e-13,-25.9926,15.2523,-26.5974,25.4558,20.9002,-0.0885291
0.083,2.21233e-05,0.00012456,-0.000127175,-4.81826e-14,6.24068e-14,-3.6077e-13,-26.1949,15.569,-26.9229,25.3171,21.4311,0.302166
0.084,4.47481e-06,0.000142708,-0.000135588,-4.97739e-14,5.84347e-14,-3.98102e-13,-26.4493,15.8995,-27.2164,24.6209,21.9947,0.693021
0.085,-6.20622e-06,0.00013613,-0.000124257,-4.22203e-14,3.94089e-14,-3.8048e-13,-26.7402,16.2593,-27.476,23.431,22.5612,1.09437
0.086,-1.16084e-05,0.000116118,-0.00010293,-2.03273e-14,-1.85445e-15,-2.70931e-13,-27.0505,16.6662,-27.6972,21.8358,23.1037,1.52415
0.087,-1.33321e-05,9.07627e-05,-7.84035e-05,2.19657e-14,-7.32383e-14,-2.42147e-14,-27.364,17.1386,-27.8753,19.9368,23.6064,2.0006
0.088,-1.27361e-05,6.53497e-05,-5.497e-05,9.09702e-14,-1.82207e-13,4.09916e-13,-27.6667,17.6937,-28.0068,17.8361,24.0661,2.53377
0.089,-1.08785e-05,4.29225e-05,-3.497e-05,1.92124e-13,-3.33952e-13,1.07999e-12,-27.9484,18.3458,-28.0913,15.6251,24.4898,3.12065
0.09,-8.51788e-06,2.48717e-05,-1.93425e-05,3.28219e-13,-5.28627e-13,2.02147e-12,-28.2031,19.1049,-28.1316,13.3767,24.8906,3.74632
0.091,-6.1501e-06,1.14725e-05,-8.10779e-06,4.96864e-13,-7.57602e-13,3.2398e-12,-28.4294,19.9753,-28.1345,11.1424,25.2827,4.38918
0.092,-4.0606e-06,2.32791e-06,-7.53676e-07,6.87152e-13,-9.98753e-13,4.68698e-12,-28.6303,20.955,-28.1099,8.95334,25.6796,5.02607
0.093,-2.37931e-06,-3.29553e-06,3.48042e-06,8.75625e-13,-1.21107e-12,6.23211e-12,-28.8134,22.0342,-28.0698,6.82503,26.0923,5.63596
0.094,-1.13072e-06,-6.23223e-06,5.41228e-06,1.02186e-12,-1.32923e-12,7.6272e-12,-28.9893,23.1947,-28.0268,4.76203,26.5292,6.20267
0.095,-2.75122e-07,-7.26838e-06,5.80212e-06,1.0643e-12,-1.25909e-12,8.47203e-12,-29.1716,24.4096,-27.9922,2.76323,26.9947,6.71658
0.096,2.59968e-07,-7.05956e-06,5.29539e-06,9.17413e-13,-8.76006e-13,8.18461e-12,-29.3759,25.6435,-27.9763,0.826076,27.4897,7.17516
0.097,5.5782e-07,-6.09705e-06,4.40519e-06,4.71702e-13,-2.80682e-14,5.98751e-12,-29.6196,26.8541,-27.9868,-1.05038,28.012,7.58155
0.098,6.98204e-07,-4.70692e-06,3.51843e-06,-4.01328e-13,1.45255e-12,9.24539e-13,-29.9211,27.9939,-28.0291,-2.86392,28.5574,7.94195
0.099,7.49045e-07,-3.06978e-06,2.91309e-06,-1.83655e-12,3.72655e-12,-8.07309e-12,-30.2985,29.0126,-28.1055,-4.60888,29.1204,8.26293
0.1,7.62116e-07,-1.25292e-06,2.77665e-06,-3.95196e-12,6.90891e-12,-2.20484e-11,-30.768,29.8599,-28.2165,-6.27673,29.6947,8.54965
0.101,7.71134e-07,7.5003e-07,3.21881e-06,-6.81174e-12,1.10112e-11,-4.17833e-11,-31.3431,30.489,-28.3623,-7.85732,30.2736,8.80536
0.102,7.91026e-07,2.97413e-06,4.27343e-06,-1.03732e-11,1.5863e-11,-6.74432e-11,-32.0327,30.8606,-28.5428,-9.34041,30.8518,9.03125
0.103,8.17521e-07,5.43316e-06,5.88726e-06,-1.44165e-11,2.10121e-11,-9.80877e-11,-32.8392,30.9463,-28.7558,-10.7173,31.4254,9.22622
0.104,8.26708e-07,8.06446e-06,7.89445e-06,-1.84594e-11,2.56106e-11,-1.31047e-10,-33.7573,30.7322,-28.9959,-11.9819,31.9918,9.38702
0.105,7.74679e-07,1.06689e-05,9.97877e-06,-2.16633e-11,2.8298e-11,-1.61197e-10,-34.7746,30.221,-29.2545,-13.1312,32.5495,9.50961
0.106,5.97842e-07,1.28484e-05,1.16278e-05,-2.27436e-11,2.7104e-11,-1.80211e-10,-35.8722,29.4321,-29.522,-14.1646,33.0967,9.59154
0.107,2.14999e-07,1.39462e-05,1.20879e-05,-1.99063e-11,1.9407e-11,-1.75911e-10,-37.0265,28.4014,-29.7897,-15.0833,33.631,9.63442
0.108,-4.67285e-07,1.30013e-05,1.03326e-05,-1.08436e-11,1.99528e-12,-1.31954e-10,-38.2117,27.1785,-30.0514,-15.8889,34.1501,9.64522
0.109,-1.54406e-06,8.73335e-06,5.0638e-06,7.16766e-12,-2.87022e-11,-2.81389e-11,-39.401,25.8235,-30.305,-16.5818,34.6524,9.63596
0.11,-3.09394e-06,-4.18611e-07,-5.22831e-06,3.70079e-11,-7.61418e-11,1.5826e-10,-40.569,24.4019,-30.5521,-17.1608,35.1375,9.62193
0.111,-5.15152e-06,-1.6171e-05,-2.21169e-05,8.12341e-11,-1.42863e-10,4.49642e-10,-41.6917,22.9801,-30.7976,-17.6226,35.6056,9.61933
0.112,-7.66864e-06,-4.01481e-05,-4.69641e-05,1.41311e-10,-2.29286e-10,8.63196e-10,-42.7464,21.6192,-31.0492,-17.963,36.0572,9.64313
0.113,-1.04641e-05,-7.34731e-05,-8.04872e-05,2.16498e-10,-3.32052e-10,1.40348e-09,-43.7108,20.3698,-31.3151,-18.1782,36.4931,9.7051
0.114,-1.31636e-05,-0.000116161,-0.000122135,3.02374e-10,-4.41935e-10,2.05216e-09,-44.5627,19.2674,-31.6026,-18.267,36.9142,9.8123
0.115,-1.51354e-05,-0.000166294,-0.000169265,3.89036e-10,-5.4141e-10,2.75484e-09,-45.2801,18.3298,-31.9145,-18.2317,37.3217,9.96635
0.116,-1.54313e-05,-0.000218991,-0.00021615,4.59092e-10,-6.02155e-10,3.40574e-09,-45.8422,17.5572,-32.2476,-18.0788,37.716,10.1635
0.117,-1.27496e-05,-0.000265227,-0.000252877,4.85738e-10,-5.82942e-10,3.8316e-09,-46.2313,16.9343,-32.5909,-17.8187,38.0958,10.3952
0.118,-5.44385e-06,-0.000290645,-0.00026432,4.31359e-10,-4.28642e-10,3.77775e-09,-46.4344,16.434,-32.9279,-17.4644,38.4564,10.6485
0.119,8.39033e-06,-0.000274586,-0.000229408,2.47329e-10,-7.13863e-11,2.90071e-09,-46.4445,16.0204,-33.2391,-17.0299,38.7899,10.9075
0.12,3.07113e-05,-0.000189717,-0.000121111,-1.24038e-10,5.64784e-10,7.7379e-10,-46.2618,15.6533,-33.5058,-16.5293,39.0867,11.1555
0.121,6.3165e-05,-2.77089e-06,9.23637e-05,-7.44226e-10,1.55414e-09,-3.08597e-09,-45.8936,15.2918,-33.7125,-15.9747,39.3374,11.3777
0.122,0.000106513,0.000322952,0.000444507,-1.66858e-09,2.95264e-09,-9.15925e-09,-45.3538,14.8979,-33.8484,-15.3763,39.5356,11.5639
0.123,0.00015982,0.000822502,0.000964808,-2.93028e-09,4.77274e-09,-1.78231e-08,-44.6622,14.4401,-33.9076,-14.7423,39.6791,11.7093
0.124,0.000219396,0.0015208,0.00166969,-4.51709e-09,6.94869e-09,-2.91959e-08,-43.8422,13.8962,-33.8892,-14.0813,39.7697,11.8146
0.125,0.000277519,0.00241996,0.00254945,-6.3403e-09,9.29236e-09,-4.29223e-08,-42.9194,13.2552,-33.7973,-13.4035,39.8124,11.884
0.126,0.000321064,0.00348205,0.00355091,-8.19662e-09,1.14417e-08,-5.78956e-08,-41.9192,12.5181,-33.6408,-12.7214,39.8128,11.9241
0.127,0.000330224,0.00460724,0.00455641,-9.72557e-09,1.28075e-08,-7.19329e-08,-40.8648,11.6972,-33.4325,-12.0493,39.7756,11.9435
0.128,0.000277678,0.00560889,0.0053604,-1.03681e-08,1.2527e-08,-8.14311e-08,-39.7755,10.8142,-33.1871,-11.402,39.7039,11.9507
0.129,0.000128706,0.00618795,0.00564721,-9.33563e-09,9.44162e-09,-8.10652e-08,-38.6661,9.89789,-32.9204,-10.7939,39.5988,11.9527
0.13,-0.000157088,0.00591192,0.00497501,-5.604e-09,2.11735e-09,-6.36187e-08,-37.5463,8.98091,-32.6473,-10.2387,39.4603,11.9536
0.131,-0.000621588,0.0042059,0.00277422,2.0484e-09,-1.10607e-08,-2.0082e-08,-36.4215,8.09678,-32.3814,-9.74788,39.2876,11.9541
0.132,-0.00130059,0.000366494,-0.00162884,1.49333e-08,-3.16873e-08,5.98046e-08,-35.2942,7.27649,-32.1344,-9.33034,39.0806,11.9536
0.133,-0.00221186,-0.00638729,-0.00894922,3.42471e-08,-6.09918e-08,1.86348e-07,-34.1661,6.54552,-31.9148,-8.99055,38.84,11.9522
0.134,-0.00333814,-0.0168095,-0.0198256,6.07374e-08,-9.9313e-08,3.67801e-07,-33.04,5.92132,-31.7271,-8.72788,38.5679,11.9524
0.135,-0.00460486,-0.0314509,-0.0346316,9.42166e-08,-1.4537e-07,6.07128e-07,-31.9213,5.41172,-31.5714,-8.53659,38.2675,11.9569
0.136,-0.00585313,-0.0503945,-0.0532019,1.32909e-07,-1.95331e-07,8.97486e-07,-30.8187,5.01449,-31.4437,-8.40729,37.9432,11.9674
0.137,-0.00681049,-0.0728927,-0.0744685,1.72645e-07,-2.41723e-07,1.21639e-06,-29.7443,4.71827,-31.3374,-8.32947,37.6001,11.9821
0.138,-0.00706335,-0.0969078,-0.0960149,2.05956e-07,-2.72286e-07,1.51882e-06,-28.7131,4.50428,-31.2445,-8.29442,37.244,11.9954
0.139,-0.00603844,-0.118581,-0.11358,2.21186e-07,-2.6898e-07,1.72988e-06,-27.7414,4.34856,-31.1564,-8.29737,36.8806,11.9982
0.14,-0.00300367,-0.131688,-0.120578,2.01808e-07,-2.07454e-07,1.73825e-06,-26.8449,4.22436,-31.0649,-8.3385,36.5146,11.9801
0.141,0.00289749,-0.127177,-0.107745,1.26256e-07,-5.74236e-08,1.39235e-06,-26.0366,4.10459,-30.9617,-8.42233,36.1495,11.9311
0.142,0.0125604,-0.0929581,-0.0630831,-3.13307e-08,2.15428e-07,5.02017e-07,-25.3253,3.96421,-30.8394,-8.55591,35.7879,11.8438
0.143,0.0267623,-0.0141661,0.0276778,-2.98921e-07,6.45321e-07,-1.15062e-06,-24.7141,3.78269,-30.6911,-8.74621,35.4317,11.7131
0.144,0.0459138,0.125812,0.179797,-7.02348e-07,1.25921e-06,-3.78643e-06,-24.1992,3.54615,-30.511,-8.99733,35.0825,11.5352
0.145,0.0697026,0.343185,0.40709,-1.25838e-06,2.06581e-06,-7.58565e-06,-23.7697,3.24859,-30.2949,-9.30773,34.7424,11.3071
0.146,0.096624,0.650091,0.718,-1.96452e-06,3.04033e-06,-1.26205e-05,-23.4082,2.89225,-30.0413,-9.66833,34.4144,11.0267
0.147,0.123411,1.04908,1.10987,-2.78533e-06,4.10485e-06,-1.87606e-05,-23.0924,2.48711,-29.7516,-10.0627,34.102,10.6932
0.148,0.144411,1.52549,1.56129,-3.63537e-06,5.10512e-06,-2.55495e-05,-22.7968,2.04986,-29.4293,-10.4708,33.8081,10.3088
0.149,0.150989,2.03776,2.02268,-4.35996e-06,5.78626e-06,-3.20592e-05,-22.4946,1.60204,-29.0795,-10.8748,33.5339,9.88056
0.15,0.13112,2.50619,2.40573,-4.71613e-06,5.77107e-06,-3.67334e-05,-22.1604,1.16744,-28.7078,-11.263,33.2783,9.42302
0.151,0.0693721,2.80121,2.5731,-4.35763e-06,4.54793e-06,-3.72459e-05,-21.7715,0.769102,-28.3193,-11.6296,33.0391,8.95647
0.152,-0.0524092,2.73347,2.33062,-2.83049e-06,1.47747e-06,-3.04138e-05,-21.3104,0.426353,-27.9177,-11.9714,32.8125,8.50123
0.153,-0.253353,2.04881,1.4256,4.12576e-07,-4.16929e-06,-1.22241e-05,-20.7657,0.152479,-27.5056,-12.2854,32.594,8.07194
0.154,-0.550313,0.433153,-0.444107,5.96762e-06,-1.3126e-05,2.19476e-05,-20.1322,-0.0467866,-27.0843,-12.5675,32.378,7.6767
0.155,-0.952693,-2.46675,-3.60396,1.43919e-05,-2.59824e-05,7.68306e-05,-19.4109,-0.17387,-26.6553,-12.8121,32.158,7.31863
0.156,-1.45499,-6.99897,-8.35248,2.60597e-05,-4.29553e-05,0.000156355,-18.6073,-0.238898,-26.2192,-13.0129,31.9268,6.99675
0.157,-2.0269,-13.4304,-14.8795,4.09493e-05,-6.35684e-05,0.000262248,-17.7307,-0.258351,-25.7746,-13.163,31.6777,6.70717
